# omega DOS_nb8 DOS_nb18 DOS_nb28 DOS_nb38 DOS_nb48
-2.000000000000000000e+00 3.057999999999999954e-02 2.379999999999999737e-03 3.273333333333333390e-03 3.993333333333333110e-03 4.246666666666666819e-03
-1.995999999999999996e+00 2.686666666666666717e-02 2.459999999999999947e-03 3.453333333333332995e-03 4.320000000000000055e-03 4.713333333333333264e-03
-1.991999999999999993e+00 2.277333333333333640e-02 2.540000000000000157e-03 3.679999999999999678e-03 4.700000000000000185e-03 5.246666666666666839e-03
-1.987999999999999989e+00 1.899999999999999953e-02 2.613333333333333394e-03 3.959999999999999978e-03 5.173333333333333603e-03 5.859999999999999758e-03
-1.983999999999999986e+00 1.581333333333333549e-02 2.666666666666666578e-03 4.313333333333333082e-03 5.760000000000000363e-03 6.553333333333333753e-03
-1.979999999999999982e+00 1.324000000000000003e-02 2.720000000000000195e-03 4.753333333333333369e-03 6.473333333333333543e-03 7.340000000000000170e-03
-1.975999999999999979e+00 1.119999999999999989e-02 2.773333333333332946e-03 5.293333333333333050e-03 7.286666666666666986e-03 8.146666666666666640e-03
-1.971999999999999975e+00 9.586666666666666947e-03 2.840000000000000076e-03 5.966666666666666126e-03 8.113333333333333508e-03 8.839999999999998900e-03
-1.967999999999999972e+00 8.313333333333334033e-03 2.933333333333333365e-03 6.793333333333332648e-03 8.833333333333333662e-03 9.246666666666666923e-03
-1.963999999999999968e+00 7.293333333333333092e-03 3.039999999999999734e-03 7.766666666666667378e-03 9.333333333333334106e-03 9.300000000000000974e-03
-1.959999999999999964e+00 6.473333333333333543e-03 3.186666666666667074e-03 8.833333333333333662e-03 9.560000000000000789e-03 9.060000000000000345e-03
-1.955999999999999961e+00 5.806666666666667441e-03 3.353333333333333166e-03 9.820000000000000603e-03 9.473333333333333606e-03 8.653333333333334057e-03
-1.951999999999999957e+00 5.259999999999999919e-03 3.560000000000000230e-03 1.049333333333333368e-02 9.126666666666666608e-03 8.179999999999999771e-03
-1.947999999999999954e+00 4.813333333333333526e-03 3.799999999999999992e-03 1.066000000000000107e-02 8.646666666666667084e-03 7.713333333333333326e-03
-1.943999999999999950e+00 4.433333333333333397e-03 4.100000000000000346e-03 1.034666666666666721e-02 8.173333333333332798e-03 7.313333333333334012e-03
-1.939999999999999947e+00 4.119999999999999531e-03 4.459999999999999555e-03 9.719999999999999474e-03 7.793333333333333536e-03 7.053333333333334197e-03
-1.935999999999999943e+00 3.853333333333333610e-03 4.913333333333332921e-03 8.999999999999999320e-03 7.519999999999999775e-03 6.953333333333333068e-03
-1.931999999999999940e+00 3.626666666666666927e-03 5.479999999999999628e-03 8.319999999999999271e-03 7.326666666666666224e-03 7.026666666666667171e-03
-1.927999999999999936e+00 3.433333333333333376e-03 6.186666666666666703e-03 7.786666666666666563e-03 7.206666666666666776e-03 7.233333333333333802e-03
-1.923999999999999932e+00 3.266666666666666417e-03 7.066666666666666409e-03 7.439999999999999565e-03 7.186666666666666724e-03 7.540000000000000695e-03
-1.919999999999999929e+00 3.119999999999999944e-03 8.126666666666665720e-03 7.293333333333333092e-03 7.313333333333334012e-03 7.893333333333333798e-03
-1.915999999999999925e+00 2.993333333333333523e-03 9.339999999999999344e-03 7.346666666666667143e-03 7.626666666666667010e-03 8.300000000000000086e-03
-1.911999999999999922e+00 2.886666666666666287e-03 1.059333333333333481e-02 7.613333333333333064e-03 8.166666666666667559e-03 8.819999999999999715e-03
-1.907999999999999918e+00 2.793333333333333432e-03 1.166666666666666720e-02 8.099999999999999561e-03 8.966666666666666188e-03 9.533333333333332896e-03
-1.903999999999999915e+00 2.706666666666666683e-03 1.230000000000000017e-02 8.853333333333332847e-03 1.007333333333333344e-02 1.053333333333333378e-02
-1.899999999999999911e+00 2.633333333333333446e-03 1.238666666666666562e-02 9.900000000000000813e-03 1.152666666666666596e-02 1.188666666666666517e-02
-1.895999999999999908e+00 2.573333333333333289e-03 1.204666666666666559e-02 1.129999999999999928e-02 1.333333333333333419e-02 1.359333333333333227e-02
-1.891999999999999904e+00 2.513333333333333131e-03 1.152666666666666596e-02 1.305333333333333345e-02 1.538666666666666655e-02 1.553999999999999999e-02
-1.887999999999999901e+00 2.466666666666666920e-03 1.107333333333333260e-02 1.510000000000000057e-02 1.739333333333333356e-02 1.741333333333333275e-02
-1.883999999999999897e+00 2.419999999999999842e-03 1.085999999999999986e-02 1.718000000000000083e-02 1.881999999999999992e-02 1.867999999999999869e-02
-1.879999999999999893e+00 2.386666666666666711e-03 1.097999999999999844e-02 1.880666666666666598e-02 1.914666666666666600e-02 1.882666666666666863e-02
-1.875999999999999890e+00 2.353333333333333579e-03 1.150000000000000154e-02 1.941333333333333452e-02 1.821333333333333485e-02 1.777333333333333196e-02
-1.872000000000000108e+00 2.320000000000000014e-03 1.245333333333333188e-02 1.874666666666666495e-02 1.640000000000000138e-02 1.590666666666666618e-02
-1.868000000000000105e+00 2.299999999999999961e-03 1.386666666666666603e-02 1.708666666666666667e-02 1.426666666666666534e-02 1.378666666666666756e-02
-1.864000000000000101e+00 2.279999999999999909e-03 1.570666666666666739e-02 1.500666666666666642e-02 1.225333333333333309e-02 1.179999999999999973e-02
-1.860000000000000098e+00 2.259999999999999856e-03 1.780666666666666856e-02 1.298666666666666719e-02 1.054666666666666773e-02 1.012666666666666750e-02
-1.856000000000000094e+00 2.246666666666666777e-03 1.977333333333333373e-02 1.125999999999999918e-02 9.186666666666667633e-03 8.773333333333332637e-03
-1.852000000000000091e+00 2.233333333333333264e-03 2.101333333333333178e-02 9.879999999999999893e-03 8.133333333333334428e-03 7.720000000000000299e-03
-1.848000000000000087e+00 2.226666666666666725e-03 2.101333333333333178e-02 8.813333333333334477e-03 7.333333333333333197e-03 6.913333333333333830e-03
-1.844000000000000083e+00 2.220000000000000185e-03 1.975333333333333455e-02 7.960000000000000062e-03 6.726666666666666385e-03 6.306666666666666150e-03
-1.840000000000000080e+00 2.220000000000000185e-03 1.768666666666666651e-02 7.226666666666666829e-03 6.239999999999999887e-03 5.840000000000000573e-03
-1.836000000000000076e+00 2.220000000000000185e-03 1.537999999999999957e-02 6.566666666666665965e-03 5.806666666666667441e-03 5.479999999999999628e-03
-1.832000000000000073e+00 2.226666666666666725e-03 1.317999999999999901e-02 5.953333333333333914e-03 5.386666666666667207e-03 5.160000000000000524e-03
-1.828000000000000069e+00 2.233333333333333264e-03 1.125999999999999918e-02 5.420000000000000338e-03 4.986666666666666158e-03 4.859999999999999737e-03
-1.824000000000000066e+00 2.246666666666666777e-03 9.666666666666667157e-03 4.959999999999999999e-03 4.619999999999999975e-03 4.559999999999999817e-03
-1.820000000000000062e+00 2.259999999999999856e-03 8.380000000000000296e-03 4.579999999999999870e-03 4.300000000000000003e-03 4.273333333333332977e-03
-1.816000000000000059e+00 2.279999999999999909e-03 7.346666666666667143e-03 4.266666666666666871e-03 4.033333333333333215e-03 4.020000000000000136e-03
-1.812000000000000055e+00 2.306666666666666501e-03 6.526666666666666727e-03 4.013333333333333162e-03 3.820000000000000045e-03 3.806666666666666532e-03
-1.808000000000000052e+00 2.326666666666666553e-03 5.873333333333333704e-03 3.806666666666666532e-03 3.639999999999999573e-03 3.626666666666666927e-03
-1.804000000000000048e+00 2.353333333333333579e-03 5.353333333333334075e-03 3.633333333333333467e-03 3.493333333333333100e-03 3.486666666666666994e-03
-1.800000000000000044e+00 2.379999999999999737e-03 4.933333333333333841e-03 3.500000000000000073e-03 3.379999999999999758e-03 3.373333333333333652e-03
-1.796000000000000041e+00 2.406666666666666763e-03 4.593333333333333816e-03 3.386666666666666731e-03 3.286666666666666903e-03 3.279999999999999930e-03
-1.792000000000000037e+00 2.446666666666666868e-03 4.313333333333333082e-03 3.300000000000000416e-03 3.213333333333333233e-03 3.206666666666666693e-03
-1.788000000000000034e+00 2.493333333333333079e-03 4.086666666666666399e-03 3.226666666666666312e-03 3.160000000000000048e-03 3.153333333333333075e-03
-1.784000000000000030e+00 2.546666666666666697e-03 3.900000000000000255e-03 3.173333333333333561e-03 3.119999999999999944e-03 3.113333333333332970e-03
-1.780000000000000027e+00 2.620000000000000367e-03 3.746666666666666808e-03 3.133333333333333456e-03 3.086666666666666378e-03 3.079999999999999839e-03
-1.776000000000000023e+00 2.686666666666666630e-03 3.619999999999999954e-03 3.099999999999999891e-03 3.073333333333333733e-03 3.066666666666666759e-03
-1.772000000000000020e+00 2.746666666666666787e-03 3.520000000000000125e-03 3.086666666666666378e-03 3.066666666666666759e-03 3.060000000000000220e-03
-1.768000000000000016e+00 2.786666666666666459e-03 3.439999999999999915e-03 3.079999999999999839e-03 3.066666666666666759e-03 3.066666666666666759e-03
-1.764000000000000012e+00 2.793333333333333432e-03 3.379999999999999758e-03 3.079999999999999839e-03 3.079999999999999839e-03 3.079999999999999839e-03
-1.760000000000000009e+00 2.786666666666666459e-03 3.339999999999999653e-03 3.093333333333333351e-03 3.099999999999999891e-03 3.099999999999999891e-03
-1.756000000000000005e+00 2.759999999999999867e-03 3.306666666666666522e-03 3.119999999999999944e-03 3.133333333333333456e-03 3.133333333333333456e-03
-1.752000000000000002e+00 2.739999999999999814e-03 3.293333333333333442e-03 3.153333333333333075e-03 3.180000000000000101e-03 3.180000000000000101e-03
-1.747999999999999998e+00 2.720000000000000195e-03 3.279999999999999930e-03 3.193333333333333180e-03 3.233333333333333285e-03 3.239999999999999825e-03
-1.743999999999999995e+00 2.706666666666666683e-03 3.266666666666666417e-03 3.253333333333333337e-03 3.293333333333333442e-03 3.306666666666666522e-03
-1.739999999999999991e+00 2.686666666666666630e-03 3.260000000000000311e-03 3.320000000000000034e-03 3.373333333333333652e-03 3.393333333333333271e-03
-1.735999999999999988e+00 2.673333333333333117e-03 3.253333333333333337e-03 3.400000000000000244e-03 3.466666666666666508e-03 3.500000000000000073e-03
-1.731999999999999984e+00 2.666666666666666578e-03 3.253333333333333337e-03 3.500000000000000073e-03 3.579999999999999849e-03 3.619999999999999954e-03
-1.727999999999999980e+00 2.666666666666666578e-03 3.260000000000000311e-03 3.619999999999999954e-03 3.719999999999999783e-03 3.773333333333333400e-03
-1.723999999999999977e+00 2.680000000000000090e-03 3.266666666666666417e-03 3.759999999999999887e-03 3.886666666666666742e-03 3.946666666666666899e-03
-1.719999999999999973e+00 2.693333333333333603e-03 3.293333333333333442e-03 3.913333333333333768e-03 4.086666666666666399e-03 4.159999999999999636e-03
-1.715999999999999970e+00 2.713333333333333222e-03 3.326666666666666574e-03 4.073333333333333320e-03 4.313333333333333082e-03 4.406666666666667238e-03
-1.711999999999999966e+00 2.733333333333333708e-03 3.373333333333333652e-03 4.233333333333332872e-03 4.573333333333332897e-03 4.686666666666666238e-03
-1.707999999999999963e+00 2.766666666666666840e-03 3.433333333333333376e-03 4.386666666666666319e-03 4.839999999999999684e-03 4.993333333333333131e-03
-1.703999999999999959e+00 2.799999999999999972e-03 3.506666666666666612e-03 4.546666666666666738e-03 5.099999999999999499e-03 5.306666666666666997e-03
-1.699999999999999956e+00 2.833333333333333537e-03 3.600000000000000335e-03 4.740000000000000289e-03 5.366666666666666287e-03 5.619999999999999996e-03
-1.695999999999999952e+00 2.873333333333333208e-03 3.713333333333333677e-03 4.986666666666666158e-03 5.659999999999999233e-03 5.946666666666666941e-03
-1.691999999999999948e+00 2.920000000000000286e-03 3.846666666666666637e-03 5.300000000000000024e-03 6.013333333333333204e-03 6.320000000000000097e-03
-1.687999999999999945e+00 2.973333333333333470e-03 4.006666666666666189e-03 5.693333333333334099e-03 6.473333333333333543e-03 6.800000000000000488e-03
-1.683999999999999941e+00 3.026666666666666655e-03 4.199999999999999740e-03 6.193333333333332809e-03 7.066666666666666409e-03 7.426666666666667353e-03
-1.679999999999999938e+00 3.086666666666666378e-03 4.433333333333333397e-03 6.819999999999999674e-03 7.846666666666666720e-03 8.253333333333333008e-03
-1.675999999999999934e+00 3.146666666666666969e-03 4.713333333333333264e-03 7.613333333333333064e-03 8.853333333333332847e-03 9.326666666666667133e-03
-1.671999999999999931e+00 3.220000000000000206e-03 5.040000000000000209e-03 8.600000000000000006e-03 1.013999999999999971e-02 1.069999999999999944e-02
-1.667999999999999927e+00 3.293333333333333442e-03 5.420000000000000338e-03 9.833333333333332815e-03 1.175999999999999962e-02 1.242666666666666746e-02
-1.663999999999999924e+00 3.373333333333333652e-03 5.826666666666666626e-03 1.135333333333333333e-02 1.372666666666666653e-02 1.449333333333333203e-02
-1.659999999999999920e+00 3.459999999999999968e-03 6.253333333333332966e-03 1.318666666666666598e-02 1.595333333333333325e-02 1.676666666666666583e-02
-1.655999999999999917e+00 3.553333333333333257e-03 6.693333333333333253e-03 1.528666666666666542e-02 1.816666666666666777e-02 1.888000000000000095e-02
-1.651999999999999913e+00 3.653333333333333086e-03 7.173333333333333645e-03 1.745333333333333112e-02 1.983333333333333129e-02 2.025333333333333499e-02
-1.647999999999999909e+00 3.759999999999999887e-03 7.753333333333333431e-03 1.924000000000000016e-02 2.039999999999999800e-02 2.037999999999999881e-02
-1.643999999999999906e+00 3.879999999999999769e-03 8.499999999999998876e-03 2.009999999999999981e-02 1.964666666666666645e-02 1.922666666666666621e-02
-1.639999999999999902e+00 4.006666666666666189e-03 9.486666666666665818e-03 1.972666666666666666e-02 1.792000000000000190e-02 1.724666666666666709e-02
-1.635999999999999899e+00 4.146666666666666556e-03 1.076000000000000047e-02 1.830000000000000029e-02 1.579999999999999807e-02 1.504666666666666652e-02
-1.631999999999999895e+00 4.300000000000000003e-03 1.236666666666666643e-02 1.631333333333333246e-02 1.375333333333333269e-02 1.301333333333333335e-02
-1.627999999999999892e+00 4.466666666666666528e-03 1.428000000000000103e-02 1.424666666666666616e-02 1.198666666666666630e-02 1.130666666666666625e-02
-1.624000000000000110e+00 4.653333333333333106e-03 1.636666666666666478e-02 1.239999999999999956e-02 1.054666666666666773e-02 9.960000000000000103e-03
-1.620000000000000107e+00 4.859999999999999737e-03 1.828000000000000111e-02 1.088000000000000078e-02 9.393333333333333396e-03 8.913333333333333872e-03
-1.616000000000000103e+00 5.093333333333333393e-03 1.952666666666666787e-02 9.693333333333333315e-03 8.486666666666666664e-03 8.113333333333333508e-03
-1.612000000000000099e+00 5.346666666666666234e-03 1.967333333333333434e-02 8.786666666666666584e-03 7.779999999999999589e-03 7.506666666666665828e-03
-1.608000000000000096e+00 5.633333333333333075e-03 1.869999999999999787e-02 8.113333333333333508e-03 7.239999999999999908e-03 7.046666666666666357e-03
-1.604000000000000092e+00 5.953333333333333914e-03 1.698666666666666727e-02 7.633333333333333116e-03 6.846666666666666699e-03 6.693333333333333253e-03
-1.600000000000000089e+00 6.313333333333333124e-03 1.502000000000000036e-02 7.293333333333333092e-03 6.559999999999999859e-03 6.440000000000000412e-03
-1.596000000000000085e+00 6.726666666666666385e-03 1.314666666666666761e-02 7.053333333333334197e-03 6.373333333333334148e-03 6.260000000000000807e-03
-1.592000000000000082e+00 7.193333333333332830e-03 1.155333333333333386e-02 6.886666666666666804e-03 6.266666666666666913e-03 6.153333333333333571e-03
-1.588000000000000078e+00 7.726666666666666405e-03 1.026666666666666700e-02 6.766666666666666489e-03 6.233333333333333781e-03 6.120000000000000440e-03
-1.584000000000000075e+00 8.333333333333333218e-03 9.266666666666666108e-03 6.713333333333334173e-03 6.266666666666666913e-03 6.139999999999999625e-03
-1.580000000000000071e+00 9.046666666666666398e-03 8.513333333333332822e-03 6.726666666666666385e-03 6.353333333333333229e-03 6.226666666666665940e-03
-1.576000000000000068e+00 9.879999999999999893e-03 7.960000000000000062e-03 6.806666666666666594e-03 6.493333333333333596e-03 6.373333333333334148e-03
-1.572000000000000064e+00 1.086666666666666510e-02 7.566666666666666853e-03 6.953333333333333068e-03 6.686666666666667147e-03 6.579999999999999911e-03
-1.568000000000000060e+00 1.204000000000000035e-02 7.300000000000000065e-03 7.146666666666666619e-03 6.946666666666666962e-03 6.839999999999999726e-03
-1.564000000000000057e+00 1.344666666666666753e-02 7.146666666666666619e-03 7.346666666666667143e-03 7.279999999999999145e-03 7.173333333333333645e-03
-1.560000000000000053e+00 1.515999999999999986e-02 7.086666666666667329e-03 7.540000000000000695e-03 7.693333333333333274e-03 7.593333333333333879e-03
-1.556000000000000050e+00 1.725333333333333233e-02 7.113333333333333487e-03 7.740000000000000352e-03 8.186666666666666745e-03 8.106666666666666535e-03
-1.552000000000000046e+00 1.984666666666666870e-02 7.219999999999999855e-03 7.979999999999999247e-03 8.720000000000000320e-03 8.713333333333333347e-03
-1.548000000000000043e+00 2.308666666666666853e-02 7.413333333333333407e-03 8.300000000000000086e-03 9.266666666666666108e-03 9.400000000000000369e-03
-1.544000000000000039e+00 2.715333333333333488e-02 7.693333333333333274e-03 8.733333333333334267e-03 9.806666666666666657e-03 1.012000000000000052e-02
-1.540000000000000036e+00 3.229333333333333361e-02 8.059999999999999457e-03 9.313333333333333186e-03 1.038666666666666731e-02 1.085333333333333289e-02
-1.536000000000000032e+00 3.874666666666666537e-02 8.546666666666665954e-03 1.005333333333333252e-02 1.106666666666666736e-02 1.161333333333333488e-02
-1.532000000000000028e+00 4.671333333333332893e-02 9.153333333333332766e-03 1.100666666666666633e-02 1.195333333333333491e-02 1.249999999999999896e-02
-1.528000000000000025e+00 5.614666666666667111e-02 9.919999999999999998e-03 1.221333333333333299e-02 1.312666666666666669e-02 1.362000000000000016e-02
-1.524000000000000021e+00 6.643333333333333035e-02 1.088000000000000078e-02 1.374666666666666572e-02 1.465999999999999942e-02 1.510000000000000057e-02
-1.520000000000000018e+00 7.607999999999999485e-02 1.208000000000000046e-02 1.569333333333333344e-02 1.666666666666666644e-02 1.706000000000000225e-02
-1.516000000000000014e+00 8.284666666666666568e-02 1.359333333333333227e-02 1.817333333333333301e-02 1.925999999999999934e-02 1.962666666666666726e-02
-1.512000000000000011e+00 8.472666666666667235e-02 1.550666666666666686e-02 2.132666666666666391e-02 2.258666666666666809e-02 2.294000000000000206e-02
-1.508000000000000007e+00 8.111999999999999766e-02 1.794000000000000108e-02 2.529333333333333433e-02 2.677333333333333301e-02 2.713333333333333222e-02
-1.504000000000000004e+00 7.318666666666666376e-02 2.103333333333333444e-02 3.017333333333333326e-02 3.186666666666666814e-02 3.223333333333332912e-02
-1.500000000000000000e+00 6.315333333333332522e-02 2.491999999999999771e-02 3.584666666666666557e-02 3.763999999999999985e-02 3.797999999999999987e-02
-1.495999999999999996e+00 5.305999999999999606e-02 2.970000000000000070e-02 4.176666666666666722e-02 4.334666666666666529e-02 4.358000000000000068e-02
-1.491999999999999993e+00 4.410666666666666208e-02 3.526666666666666838e-02 4.672666666666666635e-02 4.760666666666666519e-02 4.763999999999999485e-02
-1.487999999999999989e+00 3.667999999999999733e-02 4.109333333333333588e-02 4.915333333333333360e-02 4.891999999999999821e-02 4.868000000000000105e-02
-1.483999999999999986e+00 3.071333333333333207e-02 4.601999999999999841e-02 4.807333333333332903e-02 4.673333333333332812e-02 4.625999999999999557e-02
-1.479999999999999982e+00 2.598666666666666833e-02 4.848666666666667097e-02 4.393999999999999989e-02 4.193999999999999811e-02 4.136000000000000093e-02
-1.475999999999999979e+00 2.223999999999999935e-02 4.752666666666666845e-02 3.824666666666666492e-02 3.610666666666666885e-02 3.553333333333333344e-02
