# omega DOS_nb9 DOS_nb19 DOS_nb29 DOS_nb39 DOS_nb49
-2.000000000000000000e+00 3.540000000000000178e-03 3.559999999999999797e-03 3.540000000000000178e-03 3.520000000000000125e-03 3.540000000000000178e-03
-1.995999999999999996e+00 3.540000000000000178e-03 3.579999999999999849e-03 3.559999999999999797e-03 3.540000000000000178e-03 3.559999999999999797e-03
-1.991999999999999993e+00 3.559999999999999797e-03 3.579999999999999849e-03 3.579999999999999849e-03 3.559999999999999797e-03 3.579999999999999849e-03
-1.987999999999999989e+00 3.579999999999999849e-03 3.599999999999999901e-03 3.579999999999999849e-03 3.579999999999999849e-03 3.599999999999999901e-03
-1.983999999999999986e+00 3.599999999999999901e-03 3.619999999999999954e-03 3.599999999999999901e-03 3.599999999999999901e-03 3.619999999999999954e-03
-1.979999999999999982e+00 3.619999999999999954e-03 3.619999999999999954e-03 3.619999999999999954e-03 3.619999999999999954e-03 3.640000000000000006e-03
-1.975999999999999979e+00 3.619999999999999954e-03 3.640000000000000006e-03 3.640000000000000006e-03 3.640000000000000006e-03 3.640000000000000006e-03
-1.971999999999999975e+00 3.640000000000000006e-03 3.660000000000000059e-03 3.640000000000000006e-03 3.660000000000000059e-03 3.660000000000000059e-03
-1.967999999999999972e+00 3.660000000000000059e-03 3.660000000000000059e-03 3.660000000000000059e-03 3.680000000000000111e-03 3.660000000000000059e-03
-1.963999999999999968e+00 3.680000000000000111e-03 3.680000000000000111e-03 3.680000000000000111e-03 3.680000000000000111e-03 3.680000000000000111e-03
-1.959999999999999964e+00 3.700000000000000164e-03 3.700000000000000164e-03 3.700000000000000164e-03 3.700000000000000164e-03 3.700000000000000164e-03
-1.955999999999999961e+00 3.720000000000000216e-03 3.720000000000000216e-03 3.720000000000000216e-03 3.720000000000000216e-03 3.720000000000000216e-03
-1.951999999999999957e+00 3.739999999999999835e-03 3.739999999999999835e-03 3.739999999999999835e-03 3.739999999999999835e-03 3.739999999999999835e-03
-1.947999999999999954e+00 3.739999999999999835e-03 3.759999999999999887e-03 3.739999999999999835e-03 3.739999999999999835e-03 3.759999999999999887e-03
-1.943999999999999950e+00 3.759999999999999887e-03 3.799999999999999992e-03 3.779999999999999940e-03 3.759999999999999887e-03 3.779999999999999940e-03
-1.939999999999999947e+00 3.779999999999999940e-03 3.820000000000000045e-03 3.799999999999999992e-03 3.779999999999999940e-03 3.799999999999999992e-03
-1.935999999999999943e+00 3.799999999999999992e-03 3.840000000000000097e-03 3.820000000000000045e-03 3.799999999999999992e-03 3.820000000000000045e-03
-1.931999999999999940e+00 3.820000000000000045e-03 3.860000000000000150e-03 3.840000000000000097e-03 3.820000000000000045e-03 3.840000000000000097e-03
-1.927999999999999936e+00 3.840000000000000097e-03 3.860000000000000150e-03 3.860000000000000150e-03 3.840000000000000097e-03 3.860000000000000150e-03
-1.923999999999999932e+00 3.860000000000000150e-03 3.880000000000000202e-03 3.880000000000000202e-03 3.880000000000000202e-03 3.880000000000000202e-03
-1.919999999999999929e+00 3.880000000000000202e-03 3.899999999999999821e-03 3.899999999999999821e-03 3.899999999999999821e-03 3.899999999999999821e-03
-1.915999999999999925e+00 3.899999999999999821e-03 3.919999999999999873e-03 3.919999999999999873e-03 3.919999999999999873e-03 3.919999999999999873e-03
-1.911999999999999922e+00 3.919999999999999873e-03 3.939999999999999926e-03 3.939999999999999926e-03 3.939999999999999926e-03 3.919999999999999873e-03
-1.907999999999999918e+00 3.939999999999999926e-03 3.939999999999999926e-03 3.939999999999999926e-03 3.959999999999999978e-03 3.939999999999999926e-03
-1.903999999999999915e+00 3.959999999999999978e-03 3.980000000000000031e-03 3.959999999999999978e-03 3.980000000000000031e-03 3.959999999999999978e-03
-1.899999999999999911e+00 3.980000000000000031e-03 4.000000000000000083e-03 3.980000000000000031e-03 4.000000000000000083e-03 3.980000000000000031e-03
-1.895999999999999908e+00 4.000000000000000083e-03 4.020000000000000136e-03 4.000000000000000083e-03 4.000000000000000083e-03 3.980000000000000031e-03
-1.891999999999999904e+00 4.020000000000000136e-03 4.040000000000000188e-03 4.020000000000000136e-03 4.020000000000000136e-03 4.000000000000000083e-03
-1.887999999999999901e+00 4.040000000000000188e-03 4.080000000000000293e-03 4.040000000000000188e-03 4.040000000000000188e-03 4.020000000000000136e-03
-1.883999999999999897e+00 4.060000000000000241e-03 4.100000000000000346e-03 4.060000000000000241e-03 4.060000000000000241e-03 4.040000000000000188e-03
-1.879999999999999893e+00 4.080000000000000293e-03 4.100000000000000346e-03 4.080000000000000293e-03 4.080000000000000293e-03 4.060000000000000241e-03
-1.875999999999999890e+00 4.120000000000000398e-03 4.120000000000000398e-03 4.120000000000000398e-03 4.100000000000000346e-03 4.080000000000000293e-03
-1.872000000000000108e+00 4.139999999999999583e-03 4.139999999999999583e-03 4.139999999999999583e-03 4.120000000000000398e-03 4.100000000000000346e-03
-1.868000000000000105e+00 4.179999999999999688e-03 4.139999999999999583e-03 4.179999999999999688e-03 4.159999999999999636e-03 4.120000000000000398e-03
-1.864000000000000101e+00 4.199999999999999740e-03 4.159999999999999636e-03 4.219999999999999793e-03 4.179999999999999688e-03 4.159999999999999636e-03
-1.860000000000000098e+00 4.239999999999999845e-03 4.179999999999999688e-03 4.239999999999999845e-03 4.219999999999999793e-03 4.179999999999999688e-03
-1.856000000000000094e+00 4.259999999999999898e-03 4.199999999999999740e-03 4.259999999999999898e-03 4.239999999999999845e-03 4.199999999999999740e-03
-1.852000000000000091e+00 4.300000000000000003e-03 4.219999999999999793e-03 4.279999999999999950e-03 4.279999999999999950e-03 4.239999999999999845e-03
-1.848000000000000087e+00 4.320000000000000055e-03 4.239999999999999845e-03 4.300000000000000003e-03 4.320000000000000055e-03 4.259999999999999898e-03
-1.844000000000000083e+00 4.340000000000000108e-03 4.259999999999999898e-03 4.300000000000000003e-03 4.340000000000000108e-03 4.300000000000000003e-03
-1.840000000000000080e+00 4.360000000000000160e-03 4.279999999999999950e-03 4.320000000000000055e-03 4.360000000000000160e-03 4.320000000000000055e-03
-1.836000000000000076e+00 4.380000000000000213e-03 4.300000000000000003e-03 4.340000000000000108e-03 4.360000000000000160e-03 4.340000000000000108e-03
-1.832000000000000073e+00 4.420000000000000318e-03 4.340000000000000108e-03 4.340000000000000108e-03 4.380000000000000213e-03 4.360000000000000160e-03
-1.828000000000000069e+00 4.440000000000000370e-03 4.360000000000000160e-03 4.360000000000000160e-03 4.380000000000000213e-03 4.360000000000000160e-03
-1.824000000000000066e+00 4.460000000000000422e-03 4.380000000000000213e-03 4.400000000000000265e-03 4.400000000000000265e-03 4.380000000000000213e-03
-1.820000000000000062e+00 4.479999999999999608e-03 4.420000000000000318e-03 4.420000000000000318e-03 4.420000000000000318e-03 4.400000000000000265e-03
-1.816000000000000059e+00 4.499999999999999660e-03 4.440000000000000370e-03 4.440000000000000370e-03 4.440000000000000370e-03 4.420000000000000318e-03
-1.812000000000000055e+00 4.499999999999999660e-03 4.460000000000000422e-03 4.479999999999999608e-03 4.460000000000000422e-03 4.440000000000000370e-03
-1.808000000000000052e+00 4.519999999999999712e-03 4.479999999999999608e-03 4.499999999999999660e-03 4.479999999999999608e-03 4.460000000000000422e-03
-1.804000000000000048e+00 4.539999999999999765e-03 4.499999999999999660e-03 4.539999999999999765e-03 4.519999999999999712e-03 4.499999999999999660e-03
-1.800000000000000044e+00 4.539999999999999765e-03 4.519999999999999712e-03 4.579999999999999870e-03 4.539999999999999765e-03 4.519999999999999712e-03
-1.796000000000000041e+00 4.559999999999999817e-03 4.539999999999999765e-03 4.619999999999999975e-03 4.579999999999999870e-03 4.559999999999999817e-03
-1.792000000000000037e+00 4.579999999999999870e-03 4.559999999999999817e-03 4.640000000000000027e-03 4.619999999999999975e-03 4.599999999999999922e-03
-1.788000000000000034e+00 4.619999999999999975e-03 4.599999999999999922e-03 4.660000000000000080e-03 4.660000000000000080e-03 4.619999999999999975e-03
-1.784000000000000030e+00 4.640000000000000027e-03 4.619999999999999975e-03 4.660000000000000080e-03 4.680000000000000132e-03 4.680000000000000132e-03
-1.780000000000000027e+00 4.660000000000000080e-03 4.660000000000000080e-03 4.680000000000000132e-03 4.720000000000000237e-03 4.720000000000000237e-03
-1.776000000000000023e+00 4.700000000000000185e-03 4.680000000000000132e-03 4.700000000000000185e-03 4.740000000000000289e-03 4.760000000000000342e-03
-1.772000000000000020e+00 4.720000000000000237e-03 4.720000000000000237e-03 4.700000000000000185e-03 4.740000000000000289e-03 4.780000000000000394e-03
-1.768000000000000016e+00 4.740000000000000289e-03 4.760000000000000342e-03 4.720000000000000237e-03 4.760000000000000342e-03 4.799999999999999580e-03
-1.764000000000000012e+00 4.760000000000000342e-03 4.819999999999999632e-03 4.740000000000000289e-03 4.780000000000000394e-03 4.819999999999999632e-03
-1.760000000000000009e+00 4.780000000000000394e-03 4.859999999999999737e-03 4.780000000000000394e-03 4.780000000000000394e-03 4.839999999999999684e-03
-1.756000000000000005e+00 4.799999999999999580e-03 4.899999999999999842e-03 4.799999999999999580e-03 4.799999999999999580e-03 4.839999999999999684e-03
-1.752000000000000002e+00 4.839999999999999684e-03 4.919999999999999894e-03 4.819999999999999632e-03 4.819999999999999632e-03 4.859999999999999737e-03
-1.747999999999999998e+00 4.859999999999999737e-03 4.939999999999999947e-03 4.859999999999999737e-03 4.859999999999999737e-03 4.879999999999999789e-03
-1.743999999999999995e+00 4.899999999999999842e-03 4.959999999999999999e-03 4.899999999999999842e-03 4.879999999999999789e-03 4.899999999999999842e-03
-1.739999999999999991e+00 4.939999999999999947e-03 4.959999999999999999e-03 4.939999999999999947e-03 4.919999999999999894e-03 4.919999999999999894e-03
-1.735999999999999988e+00 4.980000000000000052e-03 4.980000000000000052e-03 4.980000000000000052e-03 4.939999999999999947e-03 4.939999999999999947e-03
-1.731999999999999984e+00 5.020000000000000157e-03 5.000000000000000104e-03 5.020000000000000157e-03 4.980000000000000052e-03 4.980000000000000052e-03
-1.727999999999999980e+00 5.060000000000000261e-03 5.020000000000000157e-03 5.060000000000000261e-03 5.020000000000000157e-03 5.020000000000000157e-03
-1.723999999999999977e+00 5.120000000000000419e-03 5.060000000000000261e-03 5.080000000000000314e-03 5.060000000000000261e-03 5.060000000000000261e-03
-1.719999999999999973e+00 5.159999999999999656e-03 5.080000000000000314e-03 5.100000000000000366e-03 5.120000000000000419e-03 5.100000000000000366e-03
-1.715999999999999970e+00 5.199999999999999761e-03 5.139999999999999604e-03 5.120000000000000419e-03 5.159999999999999656e-03 5.159999999999999656e-03
-1.711999999999999966e+00 5.239999999999999866e-03 5.179999999999999709e-03 5.139999999999999604e-03 5.199999999999999761e-03 5.199999999999999761e-03
-1.707999999999999963e+00 5.259999999999999919e-03 5.219999999999999814e-03 5.159999999999999656e-03 5.219999999999999814e-03 5.259999999999999919e-03
-1.703999999999999959e+00 5.279999999999999971e-03 5.279999999999999971e-03 5.179999999999999709e-03 5.239999999999999866e-03 5.320000000000000076e-03
-1.699999999999999956e+00 5.300000000000000024e-03 5.320000000000000076e-03 5.219999999999999814e-03 5.259999999999999919e-03 5.360000000000000181e-03
-1.695999999999999952e+00 5.320000000000000076e-03 5.360000000000000181e-03 5.239999999999999866e-03 5.259999999999999919e-03 5.400000000000000286e-03
-1.691999999999999948e+00 5.340000000000000129e-03 5.380000000000000233e-03 5.279999999999999971e-03 5.279999999999999971e-03 5.420000000000000338e-03
-1.687999999999999945e+00 5.360000000000000181e-03 5.400000000000000286e-03 5.320000000000000076e-03 5.320000000000000076e-03 5.420000000000000338e-03
-1.683999999999999941e+00 5.400000000000000286e-03 5.420000000000000338e-03 5.360000000000000181e-03 5.340000000000000129e-03 5.420000000000000338e-03
-1.679999999999999938e+00 5.440000000000000391e-03 5.420000000000000338e-03 5.400000000000000286e-03 5.380000000000000233e-03 5.440000000000000391e-03
-1.675999999999999934e+00 5.499999999999999681e-03 5.440000000000000391e-03 5.459999999999999576e-03 5.420000000000000338e-03 5.459999999999999576e-03
-1.671999999999999931e+00 5.539999999999999786e-03 5.459999999999999576e-03 5.519999999999999733e-03 5.459999999999999576e-03 5.479999999999999628e-03
-1.667999999999999927e+00 5.579999999999999891e-03 5.499999999999999681e-03 5.599999999999999943e-03 5.519999999999999733e-03 5.519999999999999733e-03
-1.663999999999999924e+00 5.619999999999999996e-03 5.539999999999999786e-03 5.680000000000000153e-03 5.559999999999999838e-03 5.559999999999999838e-03
-1.659999999999999920e+00 5.660000000000000100e-03 5.579999999999999891e-03 5.760000000000000363e-03 5.640000000000000048e-03 5.599999999999999943e-03
-1.655999999999999917e+00 5.680000000000000153e-03 5.619999999999999996e-03 5.819999999999999653e-03 5.720000000000000258e-03 5.660000000000000100e-03
-1.651999999999999913e+00 5.740000000000000310e-03 5.680000000000000153e-03 5.879999999999999810e-03 5.799999999999999600e-03 5.720000000000000258e-03
-1.647999999999999909e+00 5.780000000000000415e-03 5.740000000000000310e-03 5.899999999999999863e-03 5.879999999999999810e-03 5.799999999999999600e-03
-1.643999999999999906e+00 5.859999999999999758e-03 5.819999999999999653e-03 5.899999999999999863e-03 5.960000000000000020e-03 5.879999999999999810e-03
-1.639999999999999902e+00 5.919999999999999915e-03 5.879999999999999810e-03 5.899999999999999863e-03 6.000000000000000125e-03 5.939999999999999968e-03
-1.635999999999999899e+00 6.020000000000000177e-03 5.939999999999999968e-03 5.899999999999999863e-03 6.020000000000000177e-03 5.980000000000000072e-03
-1.631999999999999895e+00 6.119999999999999572e-03 5.980000000000000072e-03 5.899999999999999863e-03 6.040000000000000230e-03 6.020000000000000177e-03
-1.627999999999999892e+00 6.199999999999999782e-03 6.000000000000000125e-03 5.919999999999999915e-03 6.020000000000000177e-03 6.020000000000000177e-03
-1.624000000000000110e+00 6.279999999999999992e-03 6.000000000000000125e-03 5.939999999999999968e-03 6.020000000000000177e-03 6.020000000000000177e-03
-1.620000000000000107e+00 6.300000000000000044e-03 6.020000000000000177e-03 5.980000000000000072e-03 6.020000000000000177e-03 6.020000000000000177e-03
-1.616000000000000103e+00 6.320000000000000097e-03 6.020000000000000177e-03 6.040000000000000230e-03 6.040000000000000230e-03 6.020000000000000177e-03
-1.612000000000000099e+00 6.320000000000000097e-03 6.040000000000000230e-03 6.100000000000000387e-03 6.060000000000000282e-03 6.020000000000000177e-03
-1.608000000000000096e+00 6.320000000000000097e-03 6.080000000000000335e-03 6.179999999999999730e-03 6.100000000000000387e-03 6.060000000000000282e-03
-1.604000000000000092e+00 6.340000000000000149e-03 6.100000000000000387e-03 6.239999999999999887e-03 6.159999999999999677e-03 6.080000000000000335e-03
-1.600000000000000089e+00 6.360000000000000202e-03 6.159999999999999677e-03 6.320000000000000097e-03 6.219999999999999835e-03 6.119999999999999572e-03
-1.596000000000000085e+00 6.400000000000000307e-03 6.219999999999999835e-03 6.380000000000000254e-03 6.279999999999999992e-03 6.179999999999999730e-03
-1.592000000000000082e+00 6.459999999999999597e-03 6.279999999999999992e-03 6.420000000000000359e-03 6.360000000000000202e-03 6.219999999999999835e-03
-1.588000000000000078e+00 6.519999999999999754e-03 6.360000000000000202e-03 6.420000000000000359e-03 6.440000000000000412e-03 6.300000000000000044e-03
-1.584000000000000075e+00 6.559999999999999859e-03 6.440000000000000412e-03 6.420000000000000359e-03 6.519999999999999754e-03 6.380000000000000254e-03
-1.580000000000000071e+00 6.579999999999999911e-03 6.519999999999999754e-03 6.420000000000000359e-03 6.559999999999999859e-03 6.459999999999999597e-03
-1.576000000000000068e+00 6.579999999999999911e-03 6.579999999999999911e-03 6.420000000000000359e-03 6.579999999999999911e-03 6.559999999999999859e-03
-1.572000000000000064e+00 6.579999999999999911e-03 6.620000000000000016e-03 6.440000000000000412e-03 6.579999999999999911e-03 6.660000000000000121e-03
-1.568000000000000060e+00 6.579999999999999911e-03 6.660000000000000121e-03 6.479999999999999649e-03 6.579999999999999911e-03 6.740000000000000331e-03
-1.564000000000000057e+00 6.599999999999999964e-03 6.680000000000000174e-03 6.519999999999999754e-03 6.579999999999999911e-03 6.799999999999999621e-03
-1.560000000000000053e+00 6.620000000000000016e-03 6.700000000000000226e-03 6.559999999999999859e-03 6.599999999999999964e-03 6.839999999999999726e-03
-1.556000000000000050e+00 6.660000000000000121e-03 6.740000000000000331e-03 6.620000000000000016e-03 6.620000000000000016e-03 6.839999999999999726e-03
-1.552000000000000046e+00 6.700000000000000226e-03 6.799999999999999621e-03 6.680000000000000174e-03 6.660000000000000121e-03 6.819999999999999674e-03
-1.548000000000000043e+00 6.760000000000000384e-03 6.879999999999999831e-03 6.760000000000000384e-03 6.700000000000000226e-03 6.819999999999999674e-03
-1.544000000000000039e+00 6.839999999999999726e-03 6.960000000000000041e-03 6.859999999999999779e-03 6.760000000000000384e-03 6.819999999999999674e-03
-1.540000000000000036e+00 6.919999999999999936e-03 7.080000000000000356e-03 6.980000000000000093e-03 6.819999999999999674e-03 6.859999999999999779e-03
-1.536000000000000032e+00 7.020000000000000198e-03 7.199999999999999803e-03 7.100000000000000408e-03 6.919999999999999936e-03 6.879999999999999831e-03
-1.532000000000000028e+00 7.139999999999999646e-03 7.320000000000000118e-03 7.219999999999999855e-03 7.000000000000000146e-03 6.939999999999999988e-03
-1.528000000000000025e+00 7.259999999999999960e-03 7.400000000000000328e-03 7.320000000000000118e-03 7.119999999999999593e-03 7.000000000000000146e-03
-1.524000000000000021e+00 7.360000000000000223e-03 7.440000000000000432e-03 7.400000000000000328e-03 7.259999999999999960e-03 7.080000000000000356e-03
-1.520000000000000018e+00 7.440000000000000432e-03 7.459999999999999618e-03 7.440000000000000432e-03 7.380000000000000275e-03 7.179999999999999750e-03
-1.516000000000000014e+00 7.519999999999999775e-03 7.440000000000000432e-03 7.440000000000000432e-03 7.519999999999999775e-03 7.300000000000000065e-03
-1.512000000000000011e+00 7.579999999999999932e-03 7.440000000000000432e-03 7.420000000000000380e-03 7.620000000000000037e-03 7.420000000000000380e-03
-1.508000000000000007e+00 7.660000000000000142e-03 7.440000000000000432e-03 7.420000000000000380e-03 7.680000000000000195e-03 7.579999999999999932e-03
-1.504000000000000004e+00 7.760000000000000404e-03 7.459999999999999618e-03 7.440000000000000432e-03 7.700000000000000247e-03 7.740000000000000352e-03
-1.500000000000000000e+00 7.860000000000000667e-03 7.499999999999999722e-03 7.479999999999999670e-03 7.680000000000000195e-03 7.900000000000000772e-03
-1.495999999999999996e+00 7.939999999999999142e-03 7.579999999999999932e-03 7.539999999999999827e-03 7.660000000000000142e-03 8.000000000000000167e-03
-1.491999999999999993e+00 7.979999999999999247e-03 7.660000000000000142e-03 7.620000000000000037e-03 7.660000000000000142e-03 8.040000000000000271e-03
-1.487999999999999989e+00 7.960000000000000062e-03 7.779999999999999589e-03 7.720000000000000299e-03 7.680000000000000195e-03 8.019999999999999352e-03
-1.483999999999999986e+00 7.939999999999999142e-03 7.939999999999999142e-03 7.860000000000000667e-03 7.740000000000000352e-03 7.979999999999999247e-03
-1.479999999999999982e+00 7.919999999999999957e-03 8.099999999999999561e-03 8.019999999999999352e-03 7.799999999999999642e-03 7.939999999999999142e-03
-1.475999999999999979e+00 7.900000000000000772e-03 8.279999999999999166e-03 8.179999999999999771e-03 7.900000000000000772e-03 7.919999999999999957e-03
