# omega DOS_nb9 DOS_nb19 DOS_nb29
-2.000000000000000000e+00 2.583999999999999925e-03 2.327999999999999774e-03 1.959999999999999937e-03
-1.995999999999999996e+00 2.480000000000000000e-03 2.464000000000000044e-03 1.968000000000000131e-03
-1.991999999999999993e+00 2.376000000000000074e-03 2.608000000000000075e-03 1.991999999999999847e-03
-1.987999999999999989e+00 2.288000000000000103e-03 2.712000000000000001e-03 2.024000000000000191e-03
-1.983999999999999986e+00 2.223999999999999849e-03 2.759999999999999867e-03 2.072000000000000057e-03
-1.979999999999999982e+00 2.183999999999999744e-03 2.735999999999999717e-03 2.128000000000000117e-03
-1.975999999999999979e+00 2.160000000000000028e-03 2.648000000000000180e-03 2.207999999999999893e-03
-1.971999999999999975e+00 2.160000000000000028e-03 2.527999999999999865e-03 2.312000000000000253e-03
-1.967999999999999972e+00 2.175999999999999983e-03 2.423999999999999939e-03 2.440000000000000328e-03
-1.963999999999999968e+00 2.207999999999999893e-03 2.335999999999999969e-03 2.591999999999999686e-03
-1.959999999999999964e+00 2.256000000000000193e-03 2.272000000000000148e-03 2.752000000000000106e-03
-1.955999999999999961e+00 2.327999999999999774e-03 2.223999999999999849e-03 2.896000000000000137e-03
-1.951999999999999957e+00 2.423999999999999939e-03 2.199999999999999699e-03 2.983999999999999674e-03
-1.947999999999999954e+00 2.544000000000000254e-03 2.191999999999999938e-03 2.991999999999999868e-03
-1.943999999999999950e+00 2.688000000000000285e-03 2.199999999999999699e-03 2.912000000000000092e-03
-1.939999999999999947e+00 2.847999999999999837e-03 2.223999999999999849e-03 2.792000000000000211e-03
-1.935999999999999943e+00 2.983999999999999674e-03 2.256000000000000193e-03 2.664000000000000135e-03
-1.931999999999999940e+00 3.072000000000000078e-03 2.312000000000000253e-03 2.552000000000000015e-03
-1.927999999999999936e+00 3.072000000000000078e-03 2.383999999999999835e-03 2.464000000000000044e-03
-1.923999999999999932e+00 3.000000000000000062e-03 2.487999999999999760e-03 2.407999999999999984e-03
-1.919999999999999929e+00 2.879999999999999748e-03 2.608000000000000075e-03 2.367999999999999879e-03
-1.915999999999999925e+00 2.759999999999999867e-03 2.768000000000000061e-03 2.351999999999999924e-03
-1.911999999999999922e+00 2.655999999999999941e-03 2.952000000000000197e-03 2.351999999999999924e-03
-1.907999999999999918e+00 2.576000000000000165e-03 3.151999999999999854e-03 2.367999999999999879e-03
-1.903999999999999915e+00 2.527999999999999865e-03 3.327999999999999795e-03 2.407999999999999984e-03
-1.899999999999999911e+00 2.495999999999999955e-03 3.439999999999999915e-03 2.455999999999999850e-03
-1.895999999999999908e+00 2.495999999999999955e-03 3.447999999999999676e-03 2.536000000000000060e-03
-1.891999999999999904e+00 2.511999999999999910e-03 3.359999999999999706e-03 2.631999999999999791e-03
-1.887999999999999901e+00 2.544000000000000254e-03 3.207999999999999914e-03 2.759999999999999867e-03
-1.883999999999999897e+00 2.608000000000000075e-03 3.056000000000000123e-03 2.919999999999999853e-03
-1.879999999999999893e+00 2.688000000000000285e-03 2.919999999999999853e-03 3.119999999999999944e-03
-1.875999999999999890e+00 2.799999999999999972e-03 2.815999999999999927e-03 3.351999999999999945e-03
-1.872000000000000108e+00 2.944000000000000002e-03 2.743999999999999911e-03 3.599999999999999901e-03
-1.868000000000000105e+00 3.119999999999999944e-03 2.696000000000000046e-03 3.808000000000000187e-03
-1.864000000000000101e+00 3.327999999999999795e-03 2.680000000000000090e-03 3.919999999999999873e-03
-1.860000000000000098e+00 3.543999999999999841e-03 2.688000000000000285e-03 3.896000000000000157e-03
-1.856000000000000094e+00 3.719999999999999783e-03 2.719999999999999762e-03 3.767999999999999648e-03
-1.852000000000000091e+00 3.815999999999999948e-03 2.775999999999999822e-03 3.576000000000000185e-03
-1.848000000000000087e+00 3.792000000000000232e-03 2.856000000000000032e-03 3.384000000000000289e-03
-1.844000000000000083e+00 3.680000000000000111e-03 2.968000000000000152e-03 3.232000000000000064e-03
-1.840000000000000080e+00 3.536000000000000081e-03 3.111999999999999749e-03 3.111999999999999749e-03
-1.836000000000000076e+00 3.392000000000000050e-03 3.304000000000000079e-03 3.031999999999999973e-03
-1.832000000000000073e+00 3.288000000000000124e-03 3.543999999999999841e-03 2.991999999999999868e-03
-1.828000000000000069e+00 3.216000000000000109e-03 3.824000000000000142e-03 2.983999999999999674e-03
-1.824000000000000066e+00 3.191999999999999525e-03 4.144000000000000114e-03 3.007999999999999823e-03
-1.820000000000000062e+00 3.200000000000000153e-03 4.447999999999999697e-03 3.063999999999999883e-03
-1.816000000000000059e+00 3.248000000000000019e-03 4.663999999999999743e-03 3.151999999999999854e-03
-1.812000000000000055e+00 3.335999999999999990e-03 4.720000000000000237e-03 3.271999999999999735e-03
-1.808000000000000052e+00 3.472000000000000260e-03 4.608000000000000117e-03 3.439999999999999915e-03
-1.804000000000000048e+00 3.656000000000000395e-03 4.383999999999999876e-03 3.656000000000000395e-03
-1.800000000000000044e+00 3.896000000000000157e-03 4.127999999999999725e-03 3.936000000000000262e-03
-1.796000000000000041e+00 4.200000000000000608e-03 3.903999999999999918e-03 4.271999999999999756e-03
-1.792000000000000037e+00 4.568000000000000012e-03 3.727999999999999977e-03 4.655999999999999549e-03
-1.788000000000000034e+00 4.968000000000000194e-03 3.599999999999999901e-03 5.032000000000000015e-03
-1.784000000000000030e+00 5.343999999999999792e-03 3.536000000000000081e-03 5.320000000000000076e-03
-1.780000000000000027e+00 5.599999999999999943e-03 3.511999999999999931e-03 5.415999999999999807e-03
-1.776000000000000023e+00 5.648000000000000242e-03 3.527999999999999886e-03 5.303999999999999687e-03
-1.772000000000000020e+00 5.487999999999999823e-03 3.592000000000000141e-03 5.040000000000000209e-03
-1.768000000000000016e+00 5.207999999999999956e-03 3.703999999999999827e-03 4.720000000000000237e-03
-1.764000000000000012e+00 4.911999999999999700e-03 3.864000000000000247e-03 4.423999999999999981e-03
-1.760000000000000009e+00 4.655999999999999549e-03 4.087999999999999620e-03 4.184000000000000219e-03
-1.756000000000000005e+00 4.479999999999999608e-03 4.375999999999999682e-03 4.016000000000000472e-03
-1.752000000000000002e+00 4.375999999999999682e-03 4.752000000000000147e-03 3.912000000000000546e-03
-1.747999999999999998e+00 4.343999999999999771e-03 5.199999999999999761e-03 3.864000000000000247e-03
-1.743999999999999995e+00 4.392000000000000071e-03 5.712000000000000063e-03 3.864000000000000247e-03
-1.739999999999999991e+00 4.519999999999999712e-03 6.207999999999999977e-03 3.919999999999999873e-03
-1.735999999999999988e+00 4.728000000000000431e-03 6.576000000000000248e-03 4.023999999999999799e-03
-1.731999999999999984e+00 5.023999999999999820e-03 6.680000000000000174e-03 4.191999999999999546e-03
-1.727999999999999980e+00 5.432000000000000196e-03 6.511999999999999560e-03 4.423999999999999981e-03
-1.723999999999999977e+00 5.943999999999999631e-03 6.144000000000000156e-03 4.735999999999999759e-03
-1.719999999999999973e+00 6.551999999999999665e-03 5.712000000000000063e-03 5.135999999999999940e-03
-1.715999999999999970e+00 7.199999999999999803e-03 5.311999999999999882e-03 5.623999999999999659e-03
-1.711999999999999966e+00 7.743999999999999148e-03 5.000000000000000104e-03 6.184000000000000261e-03
-1.707999999999999963e+00 8.015999999999998821e-03 4.767999999999999669e-03 6.743999999999999995e-03
-1.703999999999999959e+00 7.928000000000001019e-03 4.631999999999999833e-03 7.176000000000000087e-03
-1.699999999999999956e+00 7.527999999999999969e-03 4.568000000000000012e-03 7.327999999999999445e-03
-1.695999999999999952e+00 6.968000000000000235e-03 4.576000000000000206e-03 7.167999999999999025e-03
-1.691999999999999948e+00 6.415999999999999828e-03 4.648000000000000222e-03 6.768000000000000578e-03
-1.687999999999999945e+00 5.943999999999999631e-03 4.800000000000000447e-03 6.288000000000000186e-03
-1.683999999999999941e+00 5.591999999999999749e-03 5.032000000000000015e-03 5.831999999999999511e-03
-1.679999999999999938e+00 5.343999999999999792e-03 5.360000000000000181e-03 5.471999999999999434e-03
-1.675999999999999934e+00 5.207999999999999956e-03 5.784000000000000079e-03 5.199999999999999761e-03
-1.671999999999999931e+00 5.159999999999999656e-03 6.328000000000000291e-03 5.032000000000000015e-03
-1.667999999999999927e+00 5.199999999999999761e-03 6.968000000000000235e-03 4.943999999999999610e-03
-1.663999999999999924e+00 5.328000000000000271e-03 7.631999999999999895e-03 4.943999999999999610e-03
-1.659999999999999920e+00 5.544000000000000317e-03 8.192000000000001364e-03 5.016000000000000493e-03
-1.655999999999999917e+00 5.872000000000000483e-03 8.472000000000000364e-03 5.167999999999999851e-03
-1.651999999999999913e+00 6.320000000000000964e-03 8.375999999999999765e-03 5.400000000000000286e-03
-1.647999999999999909e+00 6.872000000000000504e-03 7.976000000000000451e-03 5.735999999999999779e-03
-1.643999999999999906e+00 7.512000000000000448e-03 7.424000000000000044e-03 6.192000000000000455e-03
-1.639999999999999902e+00 8.151999999999999524e-03 6.879999999999999831e-03 6.768000000000000578e-03
-1.635999999999999899e+00 8.631999999999999049e-03 6.432000000000000217e-03 7.471999999999999476e-03
-1.631999999999999895e+00 8.799999999999998795e-03 6.104000000000000051e-03 8.264000000000000512e-03
-1.627999999999999892e+00 8.600000000000000006e-03 5.888000000000000005e-03 9.015999999999999709e-03
-1.624000000000000110e+00 8.160000000000000586e-03 5.784000000000000079e-03 9.544000000000000400e-03
-1.620000000000000107e+00 7.631999999999999895e-03 5.784000000000000079e-03 9.656000000000001388e-03
-1.616000000000000103e+00 7.159999999999999698e-03 5.879999999999999810e-03 9.343999999999999875e-03
-1.612000000000000099e+00 6.807999999999999816e-03 6.072000000000000140e-03 8.760000000000000425e-03
-1.608000000000000096e+00 6.583999999999999575e-03 6.375999999999999723e-03 8.096000000000000765e-03
-1.604000000000000092e+00 6.487999999999998976e-03 6.807999999999999816e-03 7.503999999999999386e-03
-1.600000000000000089e+00 6.519999999999999754e-03 7.392000000000000133e-03 7.048000000000000445e-03
-1.596000000000000085e+00 6.680000000000000174e-03 8.144000000000000197e-03 6.736000000000000668e-03
-1.592000000000000082e+00 6.968000000000000235e-03 9.080000000000001265e-03 6.560000000000000726e-03
-1.588000000000000078e+00 7.407999999999999655e-03 1.015999999999999889e-02 6.511999999999999560e-03
-1.584000000000000075e+00 8.023999999999999883e-03 1.124799999999999932e-02 6.592000000000000637e-03
-1.580000000000000071e+00 8.824000000000000246e-03 1.211200000000000124e-02 6.784000000000000100e-03
-1.576000000000000068e+00 9.816000000000000072e-03 1.245600000000000006e-02 7.119999999999999593e-03
-1.572000000000000064e+00 1.095199999999999993e-02 1.218400000000000039e-02 7.599999999999999985e-03
-1.568000000000000060e+00 1.208799999999999979e-02 1.143200000000000119e-02 8.255999999999999450e-03
-1.564000000000000057e+00 1.294400000000000064e-02 1.048800000000000079e-02 9.119999999999999635e-03
-1.560000000000000053e+00 1.323999999999999830e-02 9.591999999999999832e-03 1.018400000000000034e-02
-1.556000000000000050e+00 1.289599999999999948e-02 8.855999999999999289e-03 1.140000000000000041e-02
-1.552000000000000046e+00 1.208799999999999979e-02 8.328000000000000333e-03 1.262399999999999980e-02
-1.548000000000000043e+00 1.112800000000000074e-02 7.992000000000000839e-03 1.355999999999999914e-02
-1.544000000000000039e+00 1.024000000000000084e-02 7.832000000000000420e-03 1.389600000000000037e-02
-1.540000000000000036e+00 9.560000000000000789e-03 7.839999999999999747e-03 1.351199999999999971e-02
-1.536000000000000032e+00 9.103999999999999246e-03 8.007999999999999494e-03 1.260799999999999942e-02
-1.532000000000000028e+00 8.871999999999999678e-03 8.359999999999999376e-03 1.150400000000000034e-02
-1.528000000000000025e+00 8.864000000000000351e-03 8.895999999999999394e-03 1.045600000000000002e-02
-1.524000000000000021e+00 9.063999999999999141e-03 9.656000000000001388e-03 9.608000000000000221e-03
-1.520000000000000018e+00 9.496000000000000968e-03 1.064800000000000121e-02 8.968000000000000277e-03
-1.516000000000000014e+00 1.016799999999999995e-02 1.185600000000000022e-02 8.552000000000000574e-03
-1.512000000000000011e+00 1.107200000000000024e-02 1.319200000000000060e-02 8.319999999999999271e-03
-1.508000000000000007e+00 1.217599999999999932e-02 1.441600000000000173e-02 8.264000000000000512e-03
-1.504000000000000004e+00 1.333600000000000063e-02 1.517600000000000025e-02 8.383999999999999092e-03
-1.500000000000000000e+00 1.427200000000000170e-02 1.519200000000000064e-02 8.672000000000000888e-03
-1.495999999999999996e+00 1.468000000000000208e-02 1.448000000000000155e-02 9.152000000000000413e-03
-1.491999999999999993e+00 1.438399999999999922e-02 1.334399999999999996e-02 9.847999999999999116e-03
-1.487999999999999989e+00 1.353600000000000116e-02 1.212799999999999989e-02 1.078400000000000018e-02
-1.483999999999999986e+00 1.245600000000000006e-02 1.105599999999999986e-02 1.196799999999999947e-02
-1.479999999999999982e+00 1.141599999999999906e-02 1.022400000000000045e-02 1.336799999999999967e-02
-1.475999999999999979e+00 1.055999999999999994e-02 9.624000000000000610e-03 1.482400000000000037e-02
-1.471999999999999975e+00 9.943999999999999714e-03 9.256000000000000338e-03 1.600000000000000033e-02
-1.467999999999999972e+00 9.551999999999999727e-03 9.095999999999999919e-03 1.651999999999999996e-02
-1.463999999999999968e+00 9.375999999999998918e-03 9.128000000000000697e-03 1.619200000000000153e-02
-1.459999999999999964e+00 9.407999999999999696e-03 9.343999999999999875e-03 1.517600000000000025e-02
-1.455999999999999961e+00 9.639999999999999264e-03 9.775999999999999968e-03 1.385599999999999853e-02
-1.451999999999999957e+00 1.008000000000000042e-02 1.042399999999999924e-02 1.256799999999999931e-02
-1.447999999999999954e+00 1.076799999999999979e-02 1.132000000000000020e-02 1.149600000000000101e-02
-1.443999999999999950e+00 1.169599999999999980e-02 1.247200000000000045e-02 1.068799999999999958e-02
-1.439999999999999947e+00 1.287999999999999909e-02 1.383200000000000054e-02 1.012799999999999985e-02
-1.435999999999999943e+00 1.422400000000000053e-02 1.522399999999999795e-02 9.808000000000000745e-03
-1.431999999999999940e+00 1.552000000000000081e-02 1.634400000000000089e-02 9.695999999999999758e-03
-1.427999999999999936e+00 1.643199999999999869e-02 1.680800000000000002e-02 9.791999999999998622e-03
-1.423999999999999932e+00 1.663999999999999854e-02 1.644799999999999734e-02 1.008799999999999975e-02
-1.419999999999999929e+00 1.608000000000000054e-02 1.544799999999999993e-02 1.060799999999999937e-02
-1.415999999999999925e+00 1.503200000000000022e-02 1.418399999999999869e-02 1.137600000000000069e-02
-1.411999999999999922e+00 1.386400000000000132e-02 1.297599999999999795e-02 1.241599999999999995e-02
-1.407999999999999918e+00 1.282399999999999859e-02 1.198399999999999986e-02 1.371999999999999956e-02
-1.403999999999999915e+00 1.203999999999999862e-02 1.125599999999999865e-02 1.522399999999999795e-02
-1.399999999999999911e+00 1.154400000000000044e-02 1.079199999999999951e-02 1.669599999999999904e-02
-1.395999999999999908e+00 1.132000000000000020e-02 1.056799999999999927e-02 1.777600000000000013e-02
-1.391999999999999904e+00 1.136000000000000031e-02 1.056799999999999927e-02 1.807199999999999779e-02
-1.387999999999999901e+00 1.166399999999999902e-02 1.079199999999999951e-02 1.750399999999999873e-02
-1.383999999999999897e+00 1.224800000000000021e-02 1.123999999999999999e-02 1.633599999999999983e-02
-1.379999999999999893e+00 1.312800000000000078e-02 1.195200000000000082e-02 1.498400000000000079e-02
-1.375999999999999890e+00 1.428800000000000035e-02 1.294400000000000064e-02 1.374400000000000101e-02
-1.372000000000000108e+00 1.567199999999999843e-02 1.426399999999999890e-02 1.276799999999999810e-02
-1.368000000000000105e+00 1.708799999999999902e-02 1.587999999999999828e-02 1.208799999999999979e-02
-1.364000000000000101e+00 1.818399999999999878e-02 1.770400000000000099e-02 1.168800000000000047e-02
-1.360000000000000098e+00 1.859999999999999848e-02 1.942400000000000029e-02 1.155999999999999910e-02
-1.356000000000000094e+00 1.821599999999999955e-02 2.059199999999999919e-02 1.167999999999999941e-02
-1.352000000000000091e+00 1.727200000000000263e-02 2.078400000000000039e-02 1.205600000000000074e-02
-1.348000000000000087e+00 1.614399999999999863e-02 1.997600000000000070e-02 1.272000000000000040e-02
-1.344000000000000083e+00 1.515199999999999880e-02 1.853600000000000039e-02 1.368800000000000051e-02
-1.340000000000000080e+00 1.444799999999999904e-02 1.695200000000000179e-02 1.499999999999999944e-02
-1.336000000000000076e+00 1.408000000000000050e-02 1.555199999999999985e-02 1.666400000000000173e-02
-1.332000000000000073e+00 1.407200000000000117e-02 1.448000000000000155e-02 1.858399999999999982e-02
-1.328000000000000069e+00 1.443200000000000038e-02 1.375200000000000033e-02 2.051199999999999898e-02
-1.324000000000000066e+00 1.516800000000000093e-02 1.337599999999999900e-02 2.196799999999999795e-02
-1.320000000000000062e+00 1.630399999999999905e-02 1.332000000000000198e-02 2.244800000000000267e-02
-1.316000000000000059e+00 1.787199999999999900e-02 1.359200000000000165e-02 2.179199999999999887e-02
-1.312000000000000055e+00 1.983199999999999893e-02 1.418399999999999869e-02 2.029600000000000154e-02
-1.308000000000000052e+00 2.199999999999999872e-02 1.514399999999999948e-02 1.850399999999999961e-02
-1.304000000000000048e+00 2.396799999999999972e-02 1.648799999999999918e-02 1.683199999999999974e-02
-1.300000000000000044e+00 2.516800000000000287e-02 1.822400000000000062e-02 1.547199999999999964e-02
-1.296000000000000041e+00 2.515999999999999834e-02 2.026399999999999729e-02 1.447199999999999875e-02
-1.292000000000000037e+00 2.401600000000000262e-02 2.231200000000000197e-02 1.383200000000000054e-02
-1.288000000000000034e+00 2.226399999999999907e-02 2.386399999999999980e-02 1.351199999999999971e-02
-1.284000000000000030e+00 2.047200000000000061e-02 2.436800000000000077e-02 1.348799999999999999e-02
-1.280000000000000027e+00 1.899999999999999953e-02 2.361600000000000157e-02 1.376799999999999899e-02
-1.276000000000000023e+00 1.798399999999999999e-02 2.195199999999999929e-02 1.435200000000000017e-02
-1.272000000000000020e+00 1.747199999999999795e-02 1.993600000000000233e-02 1.527199999999999912e-02
-1.268000000000000016e+00 1.745599999999999929e-02 1.804000000000000048e-02 1.656799999999999939e-02
-1.264000000000000012e+00 1.792799999999999949e-02 1.647200000000000053e-02 1.825600000000000139e-02
-1.260000000000000009e+00 1.890400000000000066e-02 1.527999999999999844e-02 2.028800000000000048e-02
-1.256000000000000005e+00 2.031999999999999779e-02 1.445600000000000010e-02 2.243200000000000055e-02
-1.252000000000000002e+00 2.205599999999999922e-02 1.396000000000000019e-02 2.423200000000000007e-02
-1.247999999999999998e+00 2.377599999999999852e-02 1.374400000000000101e-02 2.511999999999999650e-02
-1.243999999999999995e+00 2.493599999999999983e-02 1.380800000000000083e-02 2.474399999999999863e-02
-1.239999999999999991e+00 2.505600000000000188e-02 1.414400000000000032e-02 2.330399999999999833e-02
-1.235999999999999988e+00 2.403999999999999887e-02 1.476000000000000055e-02 2.136000000000000051e-02
-1.231999999999999984e+00 2.228000000000000119e-02 1.570400000000000268e-02 1.943199999999999789e-02
-1.227999999999999980e+00 2.031999999999999779e-02 1.699200000000000016e-02 1.779999999999999985e-02
-1.223999999999999977e+00 1.855199999999999905e-02 1.864000000000000032e-02 1.655999999999999833e-02
-1.219999999999999973e+00 1.713600000000000192e-02 2.057600000000000054e-02 1.570400000000000268e-02
-1.215999999999999970e+00 1.610400000000000026e-02 2.255199999999999913e-02 1.519999999999999997e-02
